# Radius [au]	Intensity [Jy/sr]	error_Intensity [Jy/sr]
4.649222000000000077e-01 5.626393600000000000e+09 0.000000000000000000e+00
1.394766600000000079e+00 5.553594368000000000e+09 5.270256400000000000e+07
2.324610999999999983e+00 5.439256576000000000e+09 5.653718000000000000e+07
3.254455399999999887e+00 5.269415936000000000e+09 9.744056800000000000e+07
4.184299799999999792e+00 5.022651904000000000e+09 8.733346400000000000e+07
5.114144200000000140e+00 4.749897216000000000e+09 1.083335840000000000e+08
6.043988599999999600e+00 4.487575552000000000e+09 1.267119200000000000e+08
6.973832999999999949e+00 4.096790016000000000e+09 1.556895840000000000e+08
7.903677400000000297e+00 3.753604608000000000e+09 1.776576800000000000e+08
8.833521799999999757e+00 3.503131648000000000e+09 1.843012480000000000e+08
9.763366200000000106e+00 3.130233344000000000e+09 1.796823040000000000e+08
1.069321060000000045e+01 2.765555456000000000e+09 1.982231840000000000e+08
1.162305500000000080e+01 2.511185664000000000e+09 1.923352160000000000e+08
1.255289939999999937e+01 2.263372032000000000e+09 1.754813120000000000e+08
1.348274379999999972e+01 1.951345408000000000e+09 1.772539360000000000e+08
1.441258820000000007e+01 1.832950656000000000e+09 1.690272960000000000e+08
1.534243260000000042e+01 1.642821248000000000e+09 1.428551040000000000e+08
1.627227699999999899e+01 1.532060416000000000e+09 1.393555040000000000e+08
1.720212139999999934e+01 1.425298688000000000e+09 1.146479040000000000e+08
1.813196579999999969e+01 1.397036160000000000e+09 1.007934400000000000e+08
1.906181020000000004e+01 1.333288448000000000e+09 8.333320800000000000e+07
1.999165460000000039e+01 1.298202880000000000e+09 6.874321600000000000e+07
2.092149900000000073e+01 1.285687936000000000e+09 5.398106400000000000e+07
2.185134339999999753e+01 1.294612864000000000e+09 4.695594000000000000e+07
2.278118780000000143e+01 1.295686144000000000e+09 3.687756000000000000e+07
2.371103219999999823e+01 1.294444928000000000e+09 3.019672200000000000e+07
2.464087660000000213e+01 1.311950080000000000e+09 2.711066000000000000e+07
2.557072099999999892e+01 1.309618304000000000e+09 2.543093600000000000e+07
2.650056540000000282e+01 1.315441664000000000e+09 2.651706800000000000e+07
2.743040979999999962e+01 1.317682688000000000e+09 2.641612000000000000e+07
2.836025420000000352e+01 1.308634496000000000e+09 2.789148400000000000e+07
2.929009859999999676e+01 1.294816768000000000e+09 2.884157200000000000e+07
3.021994300000000067e+01 1.283214848000000000e+09 2.876144200000000000e+07
3.114978739999999746e+01 1.253778688000000000e+09 2.995320600000000000e+07
3.207963180000000136e+01 1.222943232000000000e+09 2.701110400000000000e+07
3.300947619999999461e+01 1.186869248000000000e+09 2.669573200000000000e+07
3.393932060000000206e+01 1.144779392000000000e+09 2.581718600000000000e+07
3.486916499999999530e+01 1.095308800000000000e+09 2.314092800000000000e+07
3.579900940000000276e+01 1.050578560000000000e+09 2.232086000000000000e+07
3.672885379999999600e+01 1.004445376000000000e+09 2.003299800000000000e+07
3.765869820000000345e+01 9.482942080000000000e+08 1.903555200000000000e+07
3.858854259999999670e+01 9.024023680000000000e+08 1.817604400000000000e+07
3.951838700000000415e+01 8.595943040000000000e+08 1.640369500000000000e+07
4.044823139999999739e+01 8.098643840000000000e+08 1.615741300000000000e+07
4.137807580000000485e+01 7.697045760000000000e+08 1.606524100000000000e+07
4.230792020000000520e+01 7.390506880000000000e+08 1.523319600000000000e+07
4.323776459999999133e+01 6.992039040000000000e+08 1.545396400000000000e+07
4.416760899999999879e+01 6.722092160000000000e+08 1.576288100000000000e+07
4.509745339999999914e+01 6.471995520000000000e+08 1.502203300000000000e+07
4.602729780000000659e+01 6.271150720000000000e+08 1.502471300000000000e+07
4.695714219999999273e+01 6.072709120000000000e+08 1.476071800000000000e+07
4.788698660000000018e+01 5.975630720000000000e+08 1.472306600000000000e+07
4.881683100000000053e+01 5.857461120000000000e+08 1.383452100000000000e+07
4.974667540000000798e+01 5.862519040000000000e+08 1.393335900000000000e+07
5.067651979999999412e+01 5.807960960000000000e+08 1.350306900000000000e+07
5.160636420000000157e+01 5.826725760000000000e+08 1.283363700000000000e+07
5.253620860000000192e+01 5.869000960000000000e+08 1.274556700000000000e+07
5.346605300000000938e+01 5.909513600000000000e+08 1.219248100000000000e+07
5.439589739999999551e+01 5.942876800000000000e+08 1.216763200000000000e+07
5.532574179999999586e+01 6.006448640000000000e+08 1.242453400000000000e+07
5.625558620000000332e+01 6.071552640000000000e+08 1.273010700000000000e+07
5.718543060000000366e+01 6.103474560000000000e+08 1.280214100000000000e+07
5.811527499999999691e+01 6.143616000000000000e+08 1.304384400000000000e+07
5.904511939999999726e+01 6.226139520000000000e+08 1.380488400000000000e+07
5.997496380000000471e+01 6.220572800000000000e+08 1.341023600000000000e+07
6.090480820000000506e+01 6.214753280000000000e+08 1.379922900000000000e+07
6.183465259999999120e+01 6.217548160000000000e+08 1.372150200000000000e+07
6.276449699999999865e+01 6.098677760000000000e+08 1.315668300000000000e+07
6.369434140000000610e+01 6.066702720000000000e+08 1.305906800000000000e+07
6.462418580000000645e+01 5.965924480000000000e+08 1.269365000000000000e+07
6.555403019999999970e+01 5.808372480000000000e+08 1.214017400000000000e+07
6.648387459999999294e+01 5.655127040000000000e+08 1.179863000000000000e+07
6.741371900000000039e+01 5.518487680000000000e+08 1.132351100000000000e+07
6.834356340000000785e+01 5.275022720000000000e+08 1.140606000000000000e+07
6.927340779999998688e+01 5.107911680000000000e+08 1.137130300000000000e+07
7.020325219999999433e+01 4.927991360000000000e+08 1.126707500000000000e+07
7.113309660000000179e+01 4.678518080000000000e+08 1.130218100000000000e+07
7.206294100000000924e+01 4.475270080000000000e+08 1.169490200000000000e+07
7.299278539999998827e+01 4.311536000000000000e+08 1.197057800000000000e+07
7.392262979999999573e+01 4.066208960000000000e+08 1.177984200000000000e+07
7.485247420000000318e+01 3.911578880000000000e+08 1.186655600000000000e+07
7.578231860000001063e+01 3.734534720000000000e+08 1.157807700000000000e+07
7.671216299999998967e+01 3.560608960000000000e+08 1.132508600000000000e+07
7.764200739999999712e+01 3.387904000000000000e+08 1.094179100000000000e+07
7.857185180000000457e+01 3.250681280000000000e+08 1.095306400000000000e+07
7.950169620000001203e+01 3.117351680000000000e+08 1.023712600000000000e+07
8.043154059999999106e+01 2.994894400000000000e+08 1.031124500000000000e+07
8.136138499999999851e+01 2.853150720000000000e+08 1.052894600000000000e+07
8.229122940000000597e+01 2.769923200000000000e+08 9.894542000000000000e+06
8.322107380000001342e+01 2.648312640000000000e+08 1.014263200000000000e+07
8.415091819999999245e+01 2.550204000000000000e+08 1.021680700000000000e+07
8.508076259999999991e+01 2.481565600000000000e+08 9.871054000000000000e+06
8.601060700000000736e+01 2.422810880000000000e+08 9.951991000000000000e+06
8.694045140000000060e+01 2.293075680000000000e+08 1.006819800000000000e+07
8.787029579999999385e+01 2.269439520000000000e+08 9.717872000000000000e+06
8.880014020000000130e+01 2.241896640000000000e+08 1.006470300000000000e+07
8.972998460000000875e+01 2.142662080000000000e+08 9.943070000000000000e+06
9.065982900000000200e+01 2.140587680000000000e+08 9.511748000000000000e+06
9.158967339999999524e+01 2.095697920000000000e+08 9.702186000000000000e+06
9.251951780000000269e+01 2.030137760000000000e+08 9.765212000000000000e+06
9.344936219999999594e+01 2.007394880000000000e+08 9.389327000000000000e+06
9.437920660000000339e+01 1.953122720000000000e+08 9.052077000000000000e+06
9.530905099999999663e+01 1.875975680000000000e+08 9.253389000000000000e+06
9.623889540000000409e+01 1.832973920000000000e+08 9.010255000000000000e+06
9.716873979999999733e+01 1.745055040000000000e+08 8.937144000000000000e+06
9.809858420000000478e+01 1.656944960000000000e+08 8.836721000000000000e+06
9.902842859999999803e+01 1.602991520000000000e+08 8.826873000000000000e+06
9.995827300000000548e+01 1.484392960000000000e+08 8.396761000000000000e+06
1.008881173999999987e+02 1.406133280000000000e+08 8.408760000000000000e+06
1.018179618000000062e+02 1.337214240000000000e+08 8.449024000000000000e+06
1.027478061999999994e+02 1.258119360000000000e+08 8.067984500000000000e+06
1.036776505999999927e+02 1.184161920000000000e+08 8.165231500000000000e+06
1.046074950000000001e+02 1.138964400000000000e+08 7.990159000000000000e+06
1.055373394000000076e+02 1.077476880000000000e+08 7.644054000000000000e+06
1.064671838000000008e+02 1.024170560000000000e+08 7.917634000000000000e+06
1.073970281999999941e+02 9.863004800000000000e+07 7.749092000000000000e+06
1.083268726000000015e+02 9.647841600000000000e+07 7.454234500000000000e+06
1.092567170000000090e+02 8.778088000000000000e+07 7.677537500000000000e+06
1.101865613999999880e+02 8.803004000000000000e+07 7.686880500000000000e+06
1.111164057999999955e+02 8.476004000000000000e+07 7.754048500000000000e+06
1.120462502000000029e+02 7.844208800000000000e+07 7.568498500000000000e+06
1.129760946000000104e+02 7.784330400000000000e+07 7.973696500000000000e+06
1.139059389999999894e+02 7.567644000000000000e+07 8.153900500000000000e+06
1.148357833999999968e+02 6.956834400000000000e+07 7.779036000000000000e+06
1.157656278000000043e+02 7.127799200000000000e+07 8.172875500000000000e+06
1.166954722000000118e+02 6.899167200000000000e+07 8.240129500000000000e+06
1.176253165999999908e+02 6.569689200000000000e+07 7.720435500000000000e+06
1.185551609999999982e+02 6.991729600000000000e+07 8.060449000000000000e+06
1.194850054000000057e+02 6.938899200000000000e+07 7.576511000000000000e+06
1.204148498000000131e+02 6.914370400000000000e+07 7.041014000000000000e+06
1.213446941999999922e+02 7.311694400000000000e+07 7.381751500000000000e+06
1.222745385999999996e+02 7.252600800000000000e+07 6.613364000000000000e+06
1.232043830000000071e+02 7.235758400000000000e+07 6.605187000000000000e+06
1.241342274000000145e+02 7.555918400000000000e+07 6.413070000000000000e+06
1.250640717999999936e+02 7.650952000000000000e+07 6.115428500000000000e+06
1.259939162000000010e+02 7.591037600000000000e+07 6.057786500000000000e+06
1.269237606000000085e+02 7.661172800000000000e+07 5.669281500000000000e+06
1.278536050000000017e+02 7.676370400000000000e+07 5.739178500000000000e+06
1.287834493999999950e+02 7.786360800000000000e+07 5.999979000000000000e+06
1.297132938000000024e+02 7.702626400000000000e+07 6.036592000000000000e+06
1.306431382000000099e+02 7.822127200000000000e+07 6.255646000000000000e+06
1.315729826000000173e+02 7.937902400000000000e+07 6.429499500000000000e+06
1.325028269999999964e+02 8.010930400000000000e+07 6.528137500000000000e+06
1.334326714000000038e+02 8.242981600000000000e+07 6.210140000000000000e+06
1.343625158000000113e+02 8.566089600000000000e+07 6.281172500000000000e+06
1.352923602000000187e+02 8.594933600000000000e+07 6.169082500000000000e+06
1.362222045999999978e+02 9.009592000000000000e+07 6.082338500000000000e+06
1.371520490000000052e+02 9.068956800000000000e+07 6.215369500000000000e+06
1.380818934000000127e+02 9.360344800000000000e+07 6.372891500000000000e+06
1.390117378000000201e+02 9.453590400000000000e+07 6.437067000000000000e+06
1.399415821999999991e+02 9.591911200000000000e+07 6.679249500000000000e+06
1.408714266000000066e+02 1.003594960000000000e+08 6.673242000000000000e+06
1.418012710000000141e+02 9.902810400000000000e+07 6.647794000000000000e+06
1.427311154000000215e+02 1.010589040000000000e+08 6.780674500000000000e+06
1.436609598000000005e+02 1.055264240000000000e+08 6.578132500000000000e+06
1.445908042000000080e+02 1.062374000000000000e+08 6.700950000000000000e+06
1.455206486000000154e+02 1.068646400000000000e+08 6.600496500000000000e+06
1.464504929999999945e+02 1.113122160000000000e+08 6.593261500000000000e+06
1.473803374000000019e+02 1.098497360000000000e+08 6.642628500000000000e+06
1.483101818000000094e+02 1.131864560000000000e+08 6.678958000000000000e+06
1.492400262000000168e+02 1.125397360000000000e+08 6.681072500000000000e+06
1.501698705999999959e+02 1.140655200000000000e+08 6.693813500000000000e+06
1.510997150000000033e+02 1.158098000000000000e+08 6.731014500000000000e+06
1.520295594000000108e+02 1.161378400000000000e+08 6.734975000000000000e+06
1.529594037999999898e+02 1.165302400000000000e+08 6.652370500000000000e+06
1.538892481999999973e+02 1.197106640000000000e+08 6.470457000000000000e+06
1.548190926000000047e+02 1.183262400000000000e+08 6.187985000000000000e+06
1.557489370000000122e+02 1.218459040000000000e+08 5.937113000000000000e+06
1.566787813999999912e+02 1.221855200000000000e+08 5.825367500000000000e+06
1.576086257999999987e+02 1.205533120000000000e+08 5.788838000000000000e+06
1.585384702000000061e+02 1.223442400000000000e+08 5.742928500000000000e+06
1.594683145999999851e+02 1.219546720000000000e+08 5.833179500000000000e+06
1.603981589999999926e+02 1.222894560000000000e+08 6.025597500000000000e+06
1.613280034000000001e+02 1.223021360000000000e+08 5.883191500000000000e+06
1.622578477999999791e+02 1.198229920000000000e+08 6.130352000000000000e+06
1.631876922000000150e+02 1.194507280000000000e+08 6.238997000000000000e+06
1.641175365999999940e+02 1.182841200000000000e+08 6.330741000000000000e+06
1.650473810000000299e+02 1.167584480000000000e+08 6.430150500000000000e+06
1.659772253999999805e+02 1.152332320000000000e+08 6.697787000000000000e+06
1.669070698000000448e+02 1.137168240000000000e+08 6.700571000000000000e+06
1.678369141999999954e+02 1.106864000000000000e+08 6.942863000000000000e+06
1.687667585999999744e+02 1.082949680000000000e+08 6.971097500000000000e+06
1.696966030000000103e+02 1.098564240000000000e+08 6.769288000000000000e+06
1.706264473999999893e+02 1.067838000000000000e+08 6.982514500000000000e+06
1.715562918000000252e+02 1.034163680000000000e+08 6.880022500000000000e+06
1.724861361999999758e+02 1.036659440000000000e+08 6.657659500000000000e+06
1.734159806000000401e+02 1.027692080000000000e+08 6.794267000000000000e+06
1.743458249999999907e+02 9.816819200000000000e+07 6.718813500000000000e+06
1.752756693999999698e+02 9.784288000000000000e+07 6.584260000000000000e+06
1.762055138000000056e+02 9.445771200000000000e+07 6.772798500000000000e+06
1.771353581999999847e+02 9.009186400000000000e+07 6.687238000000000000e+06
1.780652026000000205e+02 8.835962400000000000e+07 6.629458000000000000e+06
1.789950469999999996e+02 8.531053600000000000e+07 6.738731000000000000e+06
1.799248914000000354e+02 8.087128800000000000e+07 6.642934000000000000e+06
1.808547357999999861e+02 8.029788000000000000e+07 6.591919500000000000e+06
1.817845802000000219e+02 7.781571200000000000e+07 6.555918500000000000e+06
1.827144246000000010e+02 7.531574400000000000e+07 6.496839000000000000e+06
1.836442689999999800e+02 7.518535200000000000e+07 6.376528000000000000e+06
1.845741134000000159e+02 7.264367200000000000e+07 6.214265500000000000e+06
1.855039577999999949e+02 6.942954400000000000e+07 6.152305000000000000e+06
1.864338022000000308e+02 6.866918400000000000e+07 5.985704500000000000e+06
1.873636465999999814e+02 6.614661600000000000e+07 5.703818000000000000e+06
1.882934910000000173e+02 6.010318400000000000e+07 5.706234000000000000e+06
1.892233353999999963e+02 5.914797200000000000e+07 5.408766500000000000e+06
1.901531797999999753e+02 5.453898000000000000e+07 5.357132500000000000e+06
1.910830242000000112e+02 4.875416800000000000e+07 5.331158500000000000e+06
1.920128685999999902e+02 4.874357600000000000e+07 5.311474500000000000e+06
1.929427130000000261e+02 4.501241600000000000e+07 5.303811500000000000e+06
1.938725573999999767e+02 4.188612000000000000e+07 5.329555500000000000e+06
1.948024018000000126e+02 4.214843600000000000e+07 5.264582500000000000e+06
1.957322461999999916e+02 3.995594800000000000e+07 5.307188000000000000e+06
1.966620906000000275e+02 3.817216800000000000e+07 5.310343500000000000e+06
1.975919350000000065e+02 3.825252800000000000e+07 5.138245500000000000e+06
1.985217793999999856e+02 3.682466400000000000e+07 5.127183500000000000e+06
1.994516238000000214e+02 3.569330400000000000e+07 5.217356000000000000e+06
2.003814681999999721e+02 3.394269600000000000e+07 5.085177000000000000e+06
2.013113126000000079e+02 3.287813000000000000e+07 5.128149500000000000e+06
2.022411569999999870e+02 3.274283000000000000e+07 5.262553000000000000e+06
2.031710014000000228e+02 3.084538200000000000e+07 5.195981500000000000e+06
2.041008458000000019e+02 3.005921600000000000e+07 5.266229500000000000e+06
2.050306901999999809e+02 2.793333800000000000e+07 5.406009500000000000e+06
2.059605346000000168e+02 2.662443600000000000e+07 5.326570500000000000e+06
2.068903789999999674e+02 2.695695600000000000e+07 5.510739500000000000e+06
2.078202234000000033e+02 2.533629000000000000e+07 5.583488000000000000e+06
2.087500677999999823e+02 2.333903000000000000e+07 5.567612500000000000e+06
2.096799122000000182e+02 2.270812400000000000e+07 5.672152000000000000e+06
2.106097565999999972e+02 2.347784200000000000e+07 5.680432000000000000e+06
2.115396010000000331e+02 2.157454400000000000e+07 5.738351500000000000e+06
2.124694454000000121e+02 1.997502600000000000e+07 5.669002000000000000e+06
2.133992897999999627e+02 2.085131600000000000e+07 5.769870500000000000e+06
2.143291341999999986e+02 1.817123200000000000e+07 5.809727000000000000e+06
2.152589785999999776e+02 1.765869400000000000e+07 5.822178500000000000e+06
2.161888230000000135e+02 1.559164600000000000e+07 5.758544500000000000e+06
2.171186673999999925e+02 1.383071100000000000e+07 5.772884500000000000e+06
2.180485118000000284e+02 1.223726700000000000e+07 5.800685000000000000e+06
2.189783562000000074e+02 1.036504000000000000e+07 5.611662500000000000e+06
2.199082005999999581e+02 7.789034500000000000e+06 5.739473500000000000e+06
2.208380449999999939e+02 6.676148500000000000e+06 5.561230500000000000e+06
2.217678893999999730e+02 6.300537000000000000e+06 5.398232000000000000e+06
2.226977338000000088e+02 4.834600500000000000e+06 5.406860500000000000e+06
2.236275781999999879e+02 5.758735000000000000e+06 5.219794500000000000e+06
2.245574226000000237e+02 6.148097500000000000e+06 5.050096000000000000e+06
2.254872670000000028e+02 7.922549000000000000e+06 5.123501500000000000e+06
2.264171114000000387e+02 9.691257000000000000e+06 5.133885000000000000e+06
2.273469558000000177e+02 9.303850000000000000e+06 5.146171000000000000e+06
2.282768001999999683e+02 1.160536600000000000e+07 5.392303500000000000e+06
2.292066446000000042e+02 1.367473600000000000e+07 5.488596500000000000e+06
2.301364889999999832e+02 1.395342800000000000e+07 5.672835000000000000e+06
2.310663334000000191e+02 1.470263600000000000e+07 5.887407000000000000e+06
2.319961777999999981e+02 1.350751100000000000e+07 5.986855000000000000e+06
2.329260222000000340e+02 1.430999600000000000e+07 6.064623500000000000e+06
2.338558666000000130e+02 1.425026600000000000e+07 6.220554500000000000e+06
2.347857109999999636e+02 1.268807200000000000e+07 6.135563500000000000e+06
2.357155553999999995e+02 1.145468900000000000e+07 6.016749000000000000e+06
2.366453997999999785e+02 1.046716900000000000e+07 5.985017500000000000e+06
2.375752442000000144e+02 8.377911500000000000e+06 5.668860000000000000e+06
2.385050885999999934e+02 7.269674500000000000e+06 5.537847500000000000e+06
2.394349330000000293e+02 6.498337000000000000e+06 5.403179000000000000e+06
2.403647774000000084e+02 3.263790000000000000e+06 5.122393500000000000e+06
2.412946218000000442e+02 3.848673000000000000e+06 5.257179000000000000e+06
2.422244661999999948e+02 3.467468250000000000e+06 5.201317000000000000e+06
2.431543105999999739e+02 -5.515432500000000000e+05 5.137498000000000000e+06
2.440841550000000097e+02 1.929834750000000000e+06 5.428681500000000000e+06
2.450139993999999888e+02 2.751490750000000000e+06 5.306632500000000000e+06
2.459438438000000247e+02 -3.851450390625000000e+04 5.288324500000000000e+06
