# Radius [au]	Intensity [Jy/sr]	error_Intensity [Jy/sr]
4.649222000000000077e-01 3.921027072000000000e+10 0.000000000000000000e+00
1.394766600000000079e+00 3.864216780800000000e+10 2.802967040000000000e+08
2.324610999999999983e+00 3.772946022400000000e+10 2.976392320000000000e+08
3.254455399999999887e+00 3.639022387200000000e+10 7.733748480000000000e+08
4.184299799999999792e+00 3.449645875200000000e+10 7.372074880000000000e+08
5.114144200000000140e+00 3.243046502400000000e+10 1.016487104000000000e+09
6.043988599999999600e+00 3.046214451200000000e+10 1.159827968000000000e+09
6.973832999999999949e+00 2.755625369600000000e+10 1.409669504000000000e+09
7.903677400000000297e+00 2.516358348800000000e+10 1.584783872000000000e+09
8.833521799999999757e+00 2.346519552000000000e+10 1.601763456000000000e+09
9.763366200000000106e+00 2.081603584000000000e+10 1.538050304000000000e+09
1.069321060000000045e+01 1.835678924800000000e+10 1.667722624000000000e+09
1.162305500000000080e+01 1.667100160000000000e+10 1.576236160000000000e+09
1.255289939999999937e+01 1.502987366400000000e+10 1.438274688000000000e+09
1.348274379999999972e+01 1.296175923200000000e+10 1.424649344000000000e+09
1.441258820000000007e+01 1.229675212800000000e+10 1.339273472000000000e+09
1.534243260000000042e+01 1.110894284800000000e+10 1.118760832000000000e+09
1.627227699999999899e+01 1.053742387200000000e+10 1.091440768000000000e+09
1.720212139999999934e+01 9.957832704000000000e+09 8.856331520000000000e+08
1.813196579999999969e+01 9.943419904000000000e+09 7.775600640000000000e+08
1.906181020000000004e+01 9.684436992000000000e+09 6.392611200000000000e+08
1.999165460000000039e+01 9.618868224000000000e+09 5.197594560000000000e+08
2.092149900000000073e+01 9.708653568000000000e+09 4.053799360000000000e+08
2.185134339999999753e+01 9.899236352000000000e+09 3.457661440000000000e+08
2.278118780000000143e+01 1.002746163200000000e+10 2.727489600000000000e+08
2.371103219999999823e+01 1.014396825600000000e+10 2.203657600000000000e+08
2.464087660000000213e+01 1.025652838400000000e+10 1.926516320000000000e+08
2.557072099999999892e+01 1.030742220800000000e+10 1.614495840000000000e+08
2.650056540000000282e+01 1.036358041600000000e+10 1.345929600000000000e+08
2.743040979999999962e+01 1.032209305600000000e+10 1.234280640000000000e+08
2.836025420000000352e+01 1.024920883200000000e+10 1.079383920000000000e+08
2.929009859999999676e+01 1.018806374400000000e+10 9.207611200000000000e+07
3.021994300000000067e+01 1.003448217600000000e+10 8.239548000000000000e+07
3.114978739999999746e+01 9.871184896000000000e+09 7.560906400000000000e+07
3.207963180000000136e+01 9.665399808000000000e+09 6.412925200000000000e+07
3.300947619999999461e+01 9.433845760000000000e+09 5.763199600000000000e+07
3.393932060000000206e+01 9.159223296000000000e+09 5.400452400000000000e+07
3.486916499999999530e+01 8.875416576000000000e+09 4.588734000000000000e+07
3.579900940000000276e+01 8.565577728000000000e+09 4.610895600000000000e+07
3.672885379999999600e+01 8.275242496000000000e+09 4.277416800000000000e+07
3.765869820000000345e+01 7.942594048000000000e+09 4.119904400000000000e+07
3.858854259999999670e+01 7.616243200000000000e+09 4.165466400000000000e+07
3.951838700000000415e+01 7.305080320000000000e+09 4.121987600000000000e+07
4.044823139999999739e+01 6.981118464000000000e+09 4.057776000000000000e+07
4.137807580000000485e+01 6.668942848000000000e+09 4.585956800000000000e+07
4.230792020000000520e+01 6.397779968000000000e+09 5.130122400000000000e+07
4.323776459999999133e+01 6.131789824000000000e+09 5.510277200000000000e+07
4.416760899999999879e+01 5.882563584000000000e+09 6.096952000000000000e+07
4.509745339999999914e+01 5.673322496000000000e+09 6.571430800000000000e+07
4.602729780000000659e+01 5.501342720000000000e+09 6.948602400000000000e+07
4.695714219999999273e+01 5.345931264000000000e+09 6.995366400000000000e+07
4.788698660000000018e+01 5.245370880000000000e+09 6.947500000000000000e+07
4.881683100000000053e+01 5.182055936000000000e+09 6.546633200000000000e+07
4.974667540000000798e+01 5.124382720000000000e+09 6.315149600000000000e+07
5.067651979999999412e+01 5.110984704000000000e+09 5.462566000000000000e+07
5.160636420000000157e+01 5.151517696000000000e+09 4.767634000000000000e+07
5.253620860000000192e+01 5.181904896000000000e+09 4.026615200000000000e+07
5.346605300000000938e+01 5.234055680000000000e+09 3.171779400000000000e+07
5.439589739999999551e+01 5.303424000000000000e+09 2.847434200000000000e+07
5.532574179999999586e+01 5.366557184000000000e+09 2.552442800000000000e+07
5.625558620000000332e+01 5.437180928000000000e+09 2.609753200000000000e+07
5.718543060000000366e+01 5.481196544000000000e+09 2.760387800000000000e+07
5.811527499999999691e+01 5.526895616000000000e+09 2.860427000000000000e+07
5.904511939999999726e+01 5.577002496000000000e+09 3.126297600000000000e+07
5.997496380000000471e+01 5.576435712000000000e+09 3.338795200000000000e+07
6.090480820000000506e+01 5.573479936000000000e+09 3.491805600000000000e+07
6.183465259999999120e+01 5.558415872000000000e+09 3.471673200000000000e+07
6.276449699999999865e+01 5.510218240000000000e+09 3.813710000000000000e+07
6.369434140000000610e+01 5.452471296000000000e+09 3.919746800000000000e+07
6.462418580000000645e+01 5.388858368000000000e+09 3.637926000000000000e+07
6.555403019999999970e+01 5.281057792000000000e+09 4.010318000000000000e+07
6.648387459999999294e+01 5.176850432000000000e+09 4.055640000000000000e+07
6.741371900000000039e+01 5.072930816000000000e+09 3.646481200000000000e+07
6.834356340000000785e+01 4.931859456000000000e+09 3.959693200000000000e+07
6.927340779999998688e+01 4.797269504000000000e+09 3.787810400000000000e+07
7.020325219999999433e+01 4.665016320000000000e+09 3.340866800000000000e+07
7.113309660000000179e+01 4.490885632000000000e+09 3.346812400000000000e+07
7.206294100000000924e+01 4.346921472000000000e+09 3.254888600000000000e+07
7.299278539999998827e+01 4.203774208000000000e+09 2.817933600000000000e+07
7.392262979999999573e+01 4.027209984000000000e+09 2.859820600000000000e+07
7.485247420000000318e+01 3.878050304000000000e+09 2.795828800000000000e+07
7.578231860000001063e+01 3.733146624000000000e+09 2.545840200000000000e+07
7.671216299999998967e+01 3.566182400000000000e+09 2.558087000000000000e+07
7.764200739999999712e+01 3.415604736000000000e+09 2.531576800000000000e+07
7.857185180000000457e+01 3.281512704000000000e+09 2.356563400000000000e+07
7.950169620000001203e+01 3.134437120000000000e+09 2.454434000000000000e+07
8.043154059999999106e+01 2.997616384000000000e+09 2.471572800000000000e+07
8.136138499999999851e+01 2.891265792000000000e+09 2.410061800000000000e+07
8.229122940000000597e+01 2.756906752000000000e+09 2.494199200000000000e+07
8.322107380000001342e+01 2.650951680000000000e+09 2.587239000000000000e+07
8.415091819999999245e+01 2.561386240000000000e+09 2.513582000000000000e+07
8.508076259999999991e+01 2.459079168000000000e+09 2.532629600000000000e+07
8.601060700000000736e+01 2.366601984000000000e+09 2.546788800000000000e+07
8.694045140000000060e+01 2.294706432000000000e+09 2.439437800000000000e+07
8.787029579999999385e+01 2.213187328000000000e+09 2.299921200000000000e+07
8.880014020000000130e+01 2.143313664000000000e+09 2.304974800000000000e+07
8.972998460000000875e+01 2.081972864000000000e+09 2.151148000000000000e+07
9.065982900000000200e+01 2.025336960000000000e+09 2.001489600000000000e+07
9.158967339999999524e+01 1.971667072000000000e+09 1.929275200000000000e+07
9.251951780000000269e+01 1.920676736000000000e+09 1.931131600000000000e+07
9.344936219999999594e+01 1.872457344000000000e+09 1.854061200000000000e+07
9.437920660000000339e+01 1.826242048000000000e+09 1.812896800000000000e+07
9.530905099999999663e+01 1.775238272000000000e+09 1.889289800000000000e+07
9.623889540000000409e+01 1.727810176000000000e+09 1.819148800000000000e+07
9.716873979999999733e+01 1.677612416000000000e+09 1.854412400000000000e+07
9.809858420000000478e+01 1.632921344000000000e+09 1.941168400000000000e+07
9.902842859999999803e+01 1.582252672000000000e+09 1.801275000000000000e+07
9.995827300000000548e+01 1.531040128000000000e+09 1.792923600000000000e+07
1.008881173999999987e+02 1.483349504000000000e+09 1.830635200000000000e+07
1.018179618000000062e+02 1.432718464000000000e+09 1.693745000000000000e+07
1.027478061999999994e+02 1.378810752000000000e+09 1.643091400000000000e+07
1.036776505999999927e+02 1.332933888000000000e+09 1.630031900000000000e+07
1.046074950000000001e+02 1.280754432000000000e+09 1.469612000000000000e+07
1.055373394000000076e+02 1.230030720000000000e+09 1.440332700000000000e+07
1.064671838000000008e+02 1.194380800000000000e+09 1.395345400000000000e+07
1.073970281999999941e+02 1.146977664000000000e+09 1.265958600000000000e+07
1.083268726000000015e+02 1.108099328000000000e+09 1.248128500000000000e+07
1.092567170000000090e+02 1.075621760000000000e+09 1.210830900000000000e+07
1.101865613999999880e+02 1.037806144000000000e+09 1.212483600000000000e+07
1.111164057999999955e+02 1.009379136000000000e+09 1.219909900000000000e+07
1.120462502000000029e+02 9.794143360000000000e+08 1.197461700000000000e+07
1.129760946000000104e+02 9.512647040000000000e+08 1.240694100000000000e+07
1.139059389999999894e+02 9.259272960000000000e+08 1.258015900000000000e+07
1.148357833999999968e+02 9.055880960000000000e+08 1.183594300000000000e+07
1.157656278000000043e+02 8.844402560000000000e+08 1.211813400000000000e+07
1.166954722000000118e+02 8.662536320000000000e+08 1.242999700000000000e+07
1.176253165999999908e+02 8.468604160000000000e+08 1.190769000000000000e+07
1.185551609999999982e+02 8.340095360000000000e+08 1.233917000000000000e+07
1.194850054000000057e+02 8.176439040000000000e+08 1.304062500000000000e+07
1.204148498000000131e+02 8.048898560000000000e+08 1.334536000000000000e+07
1.213446941999999922e+02 7.928707200000000000e+08 1.321920700000000000e+07
1.222745385999999996e+02 7.831676160000000000e+08 1.371584200000000000e+07
1.232043830000000071e+02 7.650364800000000000e+08 1.361624400000000000e+07
1.241342274000000145e+02 7.592131200000000000e+08 1.325089900000000000e+07
1.250640717999999936e+02 7.510148480000000000e+08 1.335606400000000000e+07
1.259939162000000010e+02 7.412458880000000000e+08 1.313391300000000000e+07
1.269237606000000085e+02 7.400551680000000000e+08 1.259048300000000000e+07
1.278536050000000017e+02 7.376940160000000000e+08 1.267714000000000000e+07
1.287834493999999950e+02 7.411239040000000000e+08 1.277286900000000000e+07
1.297132938000000024e+02 7.438344320000000000e+08 1.243496800000000000e+07
1.306431382000000099e+02 7.539808640000000000e+08 1.284929600000000000e+07
1.315729826000000173e+02 7.624815360000000000e+08 1.331117600000000000e+07
1.325028269999999964e+02 7.750156160000000000e+08 1.359534100000000000e+07
1.334326714000000038e+02 7.947670400000000000e+08 1.388795500000000000e+07
1.343625158000000113e+02 8.157824000000000000e+08 1.473933900000000000e+07
1.352923602000000187e+02 8.306643840000000000e+08 1.516919800000000000e+07
1.362222045999999978e+02 8.568258560000000000e+08 1.589897400000000000e+07
1.371520490000000052e+02 8.756200320000000000e+08 1.677097200000000000e+07
1.380818934000000127e+02 9.027822720000000000e+08 1.732629600000000000e+07
1.390117378000000201e+02 9.302268160000000000e+08 1.781082200000000000e+07
1.399415821999999991e+02 9.560019840000000000e+08 1.811608200000000000e+07
1.408714266000000066e+02 9.846828800000000000e+08 1.839280200000000000e+07
1.418012710000000141e+02 1.014128704000000000e+09 1.829351600000000000e+07
1.427311154000000215e+02 1.040230784000000000e+09 1.818126800000000000e+07
1.436609598000000005e+02 1.065378880000000000e+09 1.799878000000000000e+07
1.445908042000000080e+02 1.092856192000000000e+09 1.765634600000000000e+07
1.455206486000000154e+02 1.113724928000000000e+09 1.701832200000000000e+07
1.464504929999999945e+02 1.136784128000000000e+09 1.650043200000000000e+07
1.473803374000000019e+02 1.158950656000000000e+09 1.584074500000000000e+07
1.483101818000000094e+02 1.174373376000000000e+09 1.518645100000000000e+07
1.492400262000000168e+02 1.195354112000000000e+09 1.509988600000000000e+07
1.501698705999999959e+02 1.203803648000000000e+09 1.397775800000000000e+07
1.510997150000000033e+02 1.217131648000000000e+09 1.399592200000000000e+07
1.520295594000000108e+02 1.223558400000000000e+09 1.379654900000000000e+07
1.529594037999999898e+02 1.226713984000000000e+09 1.298573800000000000e+07
1.538892481999999973e+02 1.225370368000000000e+09 1.318508600000000000e+07
1.548190926000000047e+02 1.225407360000000000e+09 1.315758600000000000e+07
1.557489370000000122e+02 1.216148096000000000e+09 1.266651100000000000e+07
1.566787813999999912e+02 1.209850496000000000e+09 1.278691700000000000e+07
1.576086257999999987e+02 1.201440768000000000e+09 1.252814600000000000e+07
1.585384702000000061e+02 1.188922112000000000e+09 1.235512700000000000e+07
1.594683145999999851e+02 1.176530560000000000e+09 1.233952700000000000e+07
1.603981589999999926e+02 1.169847936000000000e+09 1.200655100000000000e+07
1.613280034000000001e+02 1.149479168000000000e+09 1.207594700000000000e+07
1.622578477999999791e+02 1.135411328000000000e+09 1.212354200000000000e+07
1.631876922000000150e+02 1.126890240000000000e+09 1.168033100000000000e+07
1.641175365999999940e+02 1.102297472000000000e+09 1.191627000000000000e+07
1.650473810000000299e+02 1.087988608000000000e+09 1.182135200000000000e+07
1.659772253999999805e+02 1.072436608000000000e+09 1.154556000000000000e+07
1.669070698000000448e+02 1.049429376000000000e+09 1.186349000000000000e+07
1.678369141999999954e+02 1.032363584000000000e+09 1.164509300000000000e+07
1.687667585999999744e+02 1.016188544000000000e+09 1.175749900000000000e+07
1.696966030000000103e+02 9.907248640000000000e+08 1.219251500000000000e+07
1.706264473999999893e+02 9.741822720000000000e+08 1.249046000000000000e+07
1.715562918000000252e+02 9.547946240000000000e+08 1.244056900000000000e+07
1.724861361999999758e+02 9.298026880000000000e+08 1.280999100000000000e+07
1.734159806000000401e+02 9.105481600000000000e+08 1.265024400000000000e+07
1.743458249999999907e+02 8.912047360000000000e+08 1.282173500000000000e+07
1.752756693999999698e+02 8.628247680000000000e+08 1.281027800000000000e+07
1.762055138000000056e+02 8.408389760000000000e+08 1.244636900000000000e+07
1.771353581999999847e+02 8.201354240000000000e+08 1.211144200000000000e+07
1.780652026000000205e+02 7.882859520000000000e+08 1.214603800000000000e+07
1.789950469999999996e+02 7.672336000000000000e+08 1.178761200000000000e+07
1.799248914000000354e+02 7.471647360000000000e+08 1.170648800000000000e+07
1.808547357999999861e+02 7.178291840000000000e+08 1.154975700000000000e+07
1.817845802000000219e+02 6.981788160000000000e+08 1.120401500000000000e+07
1.827144246000000010e+02 6.811789440000000000e+08 1.094773800000000000e+07
1.836442689999999800e+02 6.556781440000000000e+08 1.093332500000000000e+07
1.845741134000000159e+02 6.413372160000000000e+08 1.057566200000000000e+07
1.855039577999999949e+02 6.288171520000000000e+08 1.039505200000000000e+07
1.864338022000000308e+02 6.078535680000000000e+08 1.051514800000000000e+07
1.873636465999999814e+02 5.917093760000000000e+08 1.050762900000000000e+07
1.882934910000000173e+02 5.838726400000000000e+08 1.025446200000000000e+07
1.892233353999999963e+02 5.603601920000000000e+08 1.058465800000000000e+07
1.901531797999999753e+02 5.466289280000000000e+08 1.048102600000000000e+07
1.910830242000000112e+02 5.352978880000000000e+08 9.827342000000000000e+06
1.920128685999999902e+02 5.106594560000000000e+08 1.035389900000000000e+07
1.929427130000000261e+02 4.972518720000000000e+08 1.035316300000000000e+07
1.938725573999999767e+02 4.907832320000000000e+08 9.558564000000000000e+06
1.948024018000000126e+02 4.638694720000000000e+08 1.029839400000000000e+07
1.957322461999999916e+02 4.508691840000000000e+08 1.023073700000000000e+07
1.966620906000000275e+02 4.425943360000000000e+08 9.391243000000000000e+06
1.975919350000000065e+02 4.199273280000000000e+08 1.005811000000000000e+07
1.985217793999999856e+02 4.074808640000000000e+08 9.961891000000000000e+06
1.994516238000000214e+02 4.002466240000000000e+08 9.259506000000000000e+06
2.003814681999999721e+02 3.816626240000000000e+08 9.906834000000000000e+06
2.013113126000000079e+02 3.680935040000000000e+08 9.977363000000000000e+06
2.022411569999999870e+02 3.622375680000000000e+08 9.144028000000000000e+06
2.031710014000000228e+02 3.442192640000000000e+08 9.833393000000000000e+06
2.041008458000000019e+02 3.333488000000000000e+08 9.759840000000000000e+06
2.050306901999999809e+02 3.244553600000000000e+08 9.135816000000000000e+06
2.059605346000000168e+02 3.105203200000000000e+08 9.480249000000000000e+06
2.068903789999999674e+02 2.963575680000000000e+08 9.228022000000000000e+06
2.078202234000000033e+02 2.911438720000000000e+08 8.757705000000000000e+06
2.087500677999999823e+02 2.739997440000000000e+08 9.004412000000000000e+06
2.096799122000000182e+02 2.626632640000000000e+08 8.672136000000000000e+06
2.106097565999999972e+02 2.528796000000000000e+08 8.564065000000000000e+06
2.115396010000000331e+02 2.385186560000000000e+08 8.577980000000000000e+06
2.124694454000000121e+02 2.295607360000000000e+08 8.421434000000000000e+06
2.133992897999999627e+02 2.208640480000000000e+08 8.687482000000000000e+06
2.143291341999999986e+02 2.115153760000000000e+08 8.507275000000000000e+06
2.152589785999999776e+02 2.033656160000000000e+08 8.711674000000000000e+06
2.161888230000000135e+02 1.938669600000000000e+08 8.725414000000000000e+06
2.171186673999999925e+02 1.855608640000000000e+08 8.966376000000000000e+06
2.180485118000000284e+02 1.767905600000000000e+08 8.997020000000000000e+06
2.189783562000000074e+02 1.635542240000000000e+08 9.218232000000000000e+06
2.199082005999999581e+02 1.565033920000000000e+08 9.021980000000000000e+06
2.208380449999999939e+02 1.458931360000000000e+08 9.035756000000000000e+06
2.217678893999999730e+02 1.358302080000000000e+08 9.201307000000000000e+06
2.226977338000000088e+02 1.279592080000000000e+08 9.172136000000000000e+06
2.236275781999999879e+02 1.206134160000000000e+08 9.107361000000000000e+06
2.245574226000000237e+02 1.111318720000000000e+08 8.972348000000000000e+06
2.254872670000000028e+02 1.076470560000000000e+08 8.796693000000000000e+06
2.264171114000000387e+02 1.011416560000000000e+08 8.485972000000000000e+06
2.273469558000000177e+02 9.486088000000000000e+07 8.375282000000000000e+06
2.282768001999999683e+02 9.158482400000000000e+07 8.100782500000000000e+06
2.292066446000000042e+02 8.431104800000000000e+07 7.973077500000000000e+06
2.301364889999999832e+02 7.856100000000000000e+07 7.849706500000000000e+06
2.310663334000000191e+02 7.392594400000000000e+07 7.769421500000000000e+06
2.319961777999999981e+02 6.912161600000000000e+07 7.889177000000000000e+06
2.329260222000000340e+02 6.428658800000000000e+07 8.017300500000000000e+06
2.338558666000000130e+02 6.193639600000000000e+07 8.122681000000000000e+06
2.347857109999999636e+02 5.727864000000000000e+07 8.316656500000000000e+06
2.357155553999999995e+02 5.735272400000000000e+07 8.401851000000000000e+06
2.366453997999999785e+02 5.591954000000000000e+07 8.749407000000000000e+06
2.375752442000000144e+02 5.165945200000000000e+07 8.483469000000000000e+06
2.385050885999999934e+02 5.060902800000000000e+07 8.256717000000000000e+06
2.394349330000000293e+02 4.656394400000000000e+07 8.370112000000000000e+06
2.403647774000000084e+02 4.339687600000000000e+07 8.083834000000000000e+06
2.412946218000000442e+02 4.201498000000000000e+07 8.262214500000000000e+06
2.422244661999999948e+02 3.588585600000000000e+07 8.174006500000000000e+06
2.431543105999999739e+02 3.589585600000000000e+07 8.030334000000000000e+06
2.440841550000000097e+02 3.177957000000000000e+07 8.148453000000000000e+06
2.450139993999999888e+02 2.730025400000000000e+07 7.953485000000000000e+06
2.459438438000000247e+02 2.673248400000000000e+07 7.873652000000000000e+06
