# Radius [au]	Intensity [Jy/sr]	error_Intensity [Jy/sr]
4.649222000000000077e-01 9.551472230400000000e+10 0.000000000000000000e+00
1.394766600000000079e+00 9.415814348800000000e+10 1.109105792000000000e+09
2.324610999999999983e+00 9.190502400000000000e+10 1.140726400000000000e+09
3.254455399999999887e+00 8.874006937600000000e+10 2.136745472000000000e+09
4.184299799999999792e+00 8.418625945600000000e+10 2.126102400000000000e+09
5.114144200000000140e+00 7.913431859200000000e+10 2.700357632000000000e+09
6.043988599999999600e+00 7.445872640000000000e+10 3.076482560000000000e+09
6.973832999999999949e+00 6.750719180800000000e+10 3.630612736000000000e+09
7.903677400000000297e+00 6.175782912000000000e+10 4.035469312000000000e+09
8.833521799999999757e+00 5.785164595200000000e+10 4.105441024000000000e+09
9.763366200000000106e+00 5.174569779200000000e+10 3.896733440000000000e+09
1.069321060000000045e+01 4.607898419200000000e+10 4.214509568000000000e+09
1.162305500000000080e+01 4.234685235200000000e+10 3.960808704000000000e+09
1.255289939999999937e+01 3.885301350400000000e+10 3.588235008000000000e+09
1.348274379999999972e+01 3.405418700800000000e+10 3.562301440000000000e+09
1.441258820000000007e+01 3.288438579200000000e+10 3.320150016000000000e+09
1.534243260000000042e+01 3.031801446400000000e+10 2.779992832000000000e+09
1.627227699999999899e+01 2.911964160000000000e+10 2.690794496000000000e+09
1.720212139999999934e+01 2.794782310400000000e+10 2.183022080000000000e+09
1.813196579999999969e+01 2.797311180800000000e+10 1.914160768000000000e+09
1.906181020000000004e+01 2.734704025600000000e+10 1.574072448000000000e+09
1.999165460000000039e+01 2.715392409600000000e+10 1.297506688000000000e+09
2.092149900000000073e+01 2.723266764800000000e+10 1.031924864000000000e+09
2.185134339999999753e+01 2.751928934400000000e+10 8.832691840000000000e+08
2.278118780000000143e+01 2.760197324800000000e+10 7.168260480000000000e+08
2.371103219999999823e+01 2.766808473600000000e+10 5.866986880000000000e+08
2.464087660000000213e+01 2.770026496000000000e+10 5.099042880000000000e+08
2.557072099999999892e+01 2.764792422400000000e+10 4.428164480000000000e+08
2.650056540000000282e+01 2.755996057600000000e+10 3.646341440000000000e+08
2.743040979999999962e+01 2.723940966400000000e+10 3.343384320000000000e+08
2.836025420000000352e+01 2.692363264000000000e+10 3.018749760000000000e+08
2.929009859999999676e+01 2.661109555200000000e+10 2.540615520000000000e+08
3.021994300000000067e+01 2.605888307200000000e+10 2.289339040000000000e+08
3.114978739999999746e+01 2.565460172800000000e+10 2.113001280000000000e+08
3.207963180000000136e+01 2.508193587200000000e+10 1.766049120000000000e+08
3.300947619999999461e+01 2.445635379200000000e+10 1.600884640000000000e+08
3.393932060000000206e+01 2.388381081600000000e+10 1.559529600000000000e+08
3.486916499999999530e+01 2.319039283200000000e+10 1.335132640000000000e+08
3.579900940000000276e+01 2.254746828800000000e+10 1.418676320000000000e+08
3.672885379999999600e+01 2.186785177600000000e+10 1.296313440000000000e+08
3.765869820000000345e+01 2.115319603200000000e+10 1.428945760000000000e+08
3.858854259999999670e+01 2.045654630400000000e+10 1.444162240000000000e+08
3.951838700000000415e+01 1.973732966400000000e+10 1.469921440000000000e+08
4.044823139999999739e+01 1.903575449600000000e+10 1.518793120000000000e+08
4.137807580000000485e+01 1.833544294400000000e+10 1.569104640000000000e+08
4.230792020000000520e+01 1.769121382400000000e+10 1.694060480000000000e+08
4.323776459999999133e+01 1.705326080000000000e+10 1.778088000000000000e+08
4.416760899999999879e+01 1.648225689600000000e+10 1.881049920000000000e+08
4.509745339999999914e+01 1.594199859200000000e+10 1.943082400000000000e+08
4.602729780000000659e+01 1.551179776000000000e+10 2.001484320000000000e+08
4.695714219999999273e+01 1.512133632000000000e+10 1.996246400000000000e+08
4.788698660000000018e+01 1.479975116800000000e+10 1.965607200000000000e+08
4.881683100000000053e+01 1.460304384000000000e+10 1.922129600000000000e+08
4.974667540000000798e+01 1.438139392000000000e+10 1.799170880000000000e+08
5.067651979999999412e+01 1.428976947200000000e+10 1.707042880000000000e+08
5.160636420000000157e+01 1.426105036800000000e+10 1.564465440000000000e+08
5.253620860000000192e+01 1.423318118400000000e+10 1.384521280000000000e+08
5.346605300000000938e+01 1.421104537600000000e+10 1.285447200000000000e+08
5.439589739999999551e+01 1.425045094400000000e+10 1.186454320000000000e+08
5.532574179999999586e+01 1.427437260800000000e+10 1.110548240000000000e+08
5.625558620000000332e+01 1.427410227200000000e+10 1.054444080000000000e+08
5.718543060000000366e+01 1.432875622400000000e+10 1.026528720000000000e+08
5.811527499999999691e+01 1.430056038400000000e+10 1.076084560000000000e+08
5.904511939999999726e+01 1.427380531200000000e+10 1.055375120000000000e+08
5.997496380000000471e+01 1.425677414400000000e+10 1.071898080000000000e+08
6.090480820000000506e+01 1.418904371200000000e+10 1.083666240000000000e+08
6.183465259999999120e+01 1.410836172800000000e+10 1.093286240000000000e+08
6.276449699999999865e+01 1.400770764800000000e+10 1.082091200000000000e+08
6.369434140000000610e+01 1.388049203200000000e+10 1.081011360000000000e+08
6.462418580000000645e+01 1.373569126400000000e+10 1.086490640000000000e+08
6.555403019999999970e+01 1.354756300800000000e+10 1.102005040000000000e+08
6.648387459999999294e+01 1.335134515200000000e+10 1.160531600000000000e+08
6.741371900000000039e+01 1.315680870400000000e+10 1.082762000000000000e+08
6.834356340000000785e+01 1.284387737600000000e+10 1.151704560000000000e+08
6.927340779999998688e+01 1.261454745600000000e+10 1.215073120000000000e+08
7.020325219999999433e+01 1.233054105600000000e+10 1.124150320000000000e+08
7.113309660000000179e+01 1.194812006400000000e+10 1.182523280000000000e+08
7.206294100000000924e+01 1.167465062400000000e+10 1.244266320000000000e+08
7.299278539999998827e+01 1.137300480000000000e+10 1.179282320000000000e+08
7.392262979999999573e+01 1.096426086400000000e+10 1.198530080000000000e+08
7.485247420000000318e+01 1.062517555200000000e+10 1.231213280000000000e+08
7.578231860000001063e+01 1.036383436800000000e+10 1.187335280000000000e+08
7.671216299999998967e+01 9.939074048000000000e+09 1.165003040000000000e+08
7.764200739999999712e+01 9.599570944000000000e+09 1.142733680000000000e+08
7.857185180000000457e+01 9.330007040000000000e+09 1.061396000000000000e+08
7.950169620000001203e+01 8.966020096000000000e+09 1.046648400000000000e+08
8.043154059999999106e+01 8.645312512000000000e+09 1.046452960000000000e+08
8.136138499999999851e+01 8.433928704000000000e+09 1.002308080000000000e+08
8.229122940000000597e+01 8.100410880000000000e+09 9.837306400000000000e+07
8.322107380000001342e+01 7.862506496000000000e+09 1.002714560000000000e+08
8.415091819999999245e+01 7.675369984000000000e+09 9.708089600000000000e+07
8.508076259999999991e+01 7.418032128000000000e+09 9.479036000000000000e+07
8.601060700000000736e+01 7.227535360000000000e+09 8.989248800000000000e+07
8.694045140000000060e+01 7.070678016000000000e+09 8.703508800000000000e+07
8.787029579999999385e+01 6.867547136000000000e+09 8.168192000000000000e+07
8.880014020000000130e+01 6.708009472000000000e+09 7.730956800000000000e+07
8.972998460000000875e+01 6.550048768000000000e+09 7.740732000000000000e+07
9.065982900000000200e+01 6.382937600000000000e+09 7.424174400000000000e+07
9.158967339999999524e+01 6.229942784000000000e+09 7.226995200000000000e+07
9.251951780000000269e+01 6.078561792000000000e+09 7.325533600000000000e+07
9.344936219999999594e+01 5.920204288000000000e+09 7.130318400000000000e+07
9.437920660000000339e+01 5.770772480000000000e+09 7.025401600000000000e+07
9.530905099999999663e+01 5.588588032000000000e+09 7.046620000000000000e+07
9.623889540000000409e+01 5.436990464000000000e+09 6.943714400000000000e+07
9.716873979999999733e+01 5.265419264000000000e+09 6.781516000000000000e+07
9.809858420000000478e+01 5.105957888000000000e+09 6.783244800000000000e+07
9.902842859999999803e+01 4.925279232000000000e+09 6.814306400000000000e+07
9.995827300000000548e+01 4.759278592000000000e+09 6.791489600000000000e+07
1.008881173999999987e+02 4.614988800000000000e+09 6.816049600000000000e+07
1.018179618000000062e+02 4.446292992000000000e+09 6.957208000000000000e+07
1.027478061999999994e+02 4.275694336000000000e+09 6.826450400000000000e+07
1.036776505999999927e+02 4.164283392000000000e+09 7.145168000000000000e+07
1.046074950000000001e+02 4.020140800000000000e+09 6.963020000000000000e+07
1.055373394000000076e+02 3.859294208000000000e+09 6.959137600000000000e+07
1.064671838000000008e+02 3.781092608000000000e+09 6.942341600000000000e+07
1.073970281999999941e+02 3.646633216000000000e+09 6.872994400000000000e+07
1.083268726000000015e+02 3.525648128000000000e+09 6.978953600000000000e+07
1.092567170000000090e+02 3.460811264000000000e+09 7.069689600000000000e+07
1.101865613999999880e+02 3.347994112000000000e+09 6.961210400000000000e+07
1.111164057999999955e+02 3.275039488000000000e+09 6.851260000000000000e+07
1.120462502000000029e+02 3.210198272000000000e+09 7.136880000000000000e+07
1.129760946000000104e+02 3.131685376000000000e+09 6.674624000000000000e+07
1.139059389999999894e+02 3.076419840000000000e+09 6.663741600000000000e+07
1.148357833999999968e+02 3.011969024000000000e+09 6.575899600000000000e+07
1.157656278000000043e+02 2.934475008000000000e+09 6.350628800000000000e+07
1.166954722000000118e+02 2.878163200000000000e+09 6.165148800000000000e+07
1.176253165999999908e+02 2.832803072000000000e+09 6.168203200000000000e+07
1.185551609999999982e+02 2.750768640000000000e+09 6.063591200000000000e+07
1.194850054000000057e+02 2.705461504000000000e+09 6.041118800000000000e+07
1.204148498000000131e+02 2.677860864000000000e+09 6.035081600000000000e+07
1.213446941999999922e+02 2.634827264000000000e+09 5.782061200000000000e+07
1.222745385999999996e+02 2.606598912000000000e+09 5.942081200000000000e+07
1.232043830000000071e+02 2.612546816000000000e+09 6.005847600000000000e+07
1.241342274000000145e+02 2.585534208000000000e+09 5.918604400000000000e+07
1.250640717999999936e+02 2.595175168000000000e+09 5.894470800000000000e+07
1.259939162000000010e+02 2.595385600000000000e+09 5.810056800000000000e+07
1.269237606000000085e+02 2.589001472000000000e+09 5.776485600000000000e+07
1.278536050000000017e+02 2.605954816000000000e+09 5.746817200000000000e+07
1.287834493999999950e+02 2.614386176000000000e+09 5.594267600000000000e+07
1.297132938000000024e+02 2.618614016000000000e+09 5.630068000000000000e+07
1.306431382000000099e+02 2.620650496000000000e+09 5.759014400000000000e+07
1.315729826000000173e+02 2.647284480000000000e+09 5.771466000000000000e+07
1.325028269999999964e+02 2.644915968000000000e+09 5.994902800000000000e+07
1.334326714000000038e+02 2.665315072000000000e+09 6.403394000000000000e+07
1.343625158000000113e+02 2.674206464000000000e+09 6.413905600000000000e+07
1.352923602000000187e+02 2.695056128000000000e+09 6.727720000000000000e+07
1.362222045999999978e+02 2.708953856000000000e+09 7.096704800000000000e+07
1.371520490000000052e+02 2.734986240000000000e+09 7.204420800000000000e+07
1.380818934000000127e+02 2.760015104000000000e+09 7.368418400000000000e+07
1.390117378000000201e+02 2.800586752000000000e+09 7.620820800000000000e+07
1.399415821999999991e+02 2.835104768000000000e+09 7.553798400000000000e+07
1.408714266000000066e+02 2.868633344000000000e+09 7.591828800000000000e+07
1.418012710000000141e+02 2.932929536000000000e+09 7.550052000000000000e+07
1.427311154000000215e+02 2.982563072000000000e+09 7.166056800000000000e+07
1.436609598000000005e+02 3.033796864000000000e+09 7.040218400000000000e+07
1.445908042000000080e+02 3.106978816000000000e+09 6.733746400000000000e+07
1.455206486000000154e+02 3.156747776000000000e+09 6.350612800000000000e+07
1.464504929999999945e+02 3.208387072000000000e+09 6.003658000000000000e+07
1.473803374000000019e+02 3.277261568000000000e+09 5.825321200000000000e+07
1.483101818000000094e+02 3.306293248000000000e+09 5.501785200000000000e+07
1.492400262000000168e+02 3.350792448000000000e+09 5.254916800000000000e+07
1.501698705999999959e+02 3.395761664000000000e+09 5.052754400000000000e+07
1.510997150000000033e+02 3.420101888000000000e+09 5.097718000000000000e+07
1.520295594000000108e+02 3.439829760000000000e+09 4.984395600000000000e+07
1.529594037999999898e+02 3.475625216000000000e+09 4.967324400000000000e+07
1.538892481999999973e+02 3.473701888000000000e+09 4.978170400000000000e+07
1.548190926000000047e+02 3.482902272000000000e+09 5.068402400000000000e+07
1.557489370000000122e+02 3.476949504000000000e+09 4.920890800000000000e+07
1.566787813999999912e+02 3.460818432000000000e+09 4.890548000000000000e+07
1.576086257999999987e+02 3.443307008000000000e+09 4.862947600000000000e+07
1.585384702000000061e+02 3.409075456000000000e+09 4.789748000000000000e+07
1.594683145999999851e+02 3.371297024000000000e+09 4.817742000000000000e+07
1.603981589999999926e+02 3.328492544000000000e+09 4.895586800000000000e+07
1.613280034000000001e+02 3.281825792000000000e+09 4.984483600000000000e+07
1.622578477999999791e+02 3.224283904000000000e+09 5.192586400000000000e+07
1.631876922000000150e+02 3.185029376000000000e+09 5.398215600000000000e+07
1.641175365999999940e+02 3.119493376000000000e+09 5.530141200000000000e+07
1.650473810000000299e+02 3.058888960000000000e+09 5.806239200000000000e+07
1.659772253999999805e+02 3.024064256000000000e+09 5.867901200000000000e+07
1.669070698000000448e+02 2.945685504000000000e+09 5.900208000000000000e+07
1.678369141999999954e+02 2.898094592000000000e+09 5.769945200000000000e+07
1.687667585999999744e+02 2.844320768000000000e+09 5.710949200000000000e+07
1.696966030000000103e+02 2.763242496000000000e+09 5.542370400000000000e+07
1.706264473999999893e+02 2.726233600000000000e+09 5.601638800000000000e+07
1.715562918000000252e+02 2.675956480000000000e+09 5.457173200000000000e+07
1.724861361999999758e+02 2.608365056000000000e+09 5.585357600000000000e+07
1.734159806000000401e+02 2.555408128000000000e+09 5.452795200000000000e+07
1.743458249999999907e+02 2.506608384000000000e+09 5.286142400000000000e+07
1.752756693999999698e+02 2.440710656000000000e+09 5.476346800000000000e+07
1.762055138000000056e+02 2.388480256000000000e+09 5.379467200000000000e+07
1.771353581999999847e+02 2.343583488000000000e+09 4.994066400000000000e+07
1.780652026000000205e+02 2.279911680000000000e+09 5.347066400000000000e+07
1.789950469999999996e+02 2.225833472000000000e+09 5.171172800000000000e+07
1.799248914000000354e+02 2.209583872000000000e+09 4.796562800000000000e+07
1.808547357999999861e+02 2.151794944000000000e+09 5.014152400000000000e+07
1.817845802000000219e+02 2.097206144000000000e+09 4.919648400000000000e+07
1.827144246000000010e+02 2.088220288000000000e+09 4.870865600000000000e+07
1.836442689999999800e+02 2.032950912000000000e+09 5.038219200000000000e+07
1.845741134000000159e+02 1.980516224000000000e+09 5.122430000000000000e+07
1.855039577999999949e+02 1.938214912000000000e+09 5.112627600000000000e+07
1.864338022000000308e+02 1.882987264000000000e+09 5.210076800000000000e+07
1.873636465999999814e+02 1.808640128000000000e+09 5.251320400000000000e+07
1.882934910000000173e+02 1.762653440000000000e+09 5.092587600000000000e+07
1.892233353999999963e+02 1.707326720000000000e+09 5.068691200000000000e+07
1.901531797999999753e+02 1.645234304000000000e+09 5.075610800000000000e+07
1.910830242000000112e+02 1.571397888000000000e+09 4.637980800000000000e+07
1.920128685999999902e+02 1.540618368000000000e+09 4.868808400000000000e+07
1.929427130000000261e+02 1.502262528000000000e+09 4.817566800000000000e+07
1.938725573999999767e+02 1.442973184000000000e+09 4.353644400000000000e+07
1.948024018000000126e+02 1.424295296000000000e+09 4.733243600000000000e+07
1.957322461999999916e+02 1.394336768000000000e+09 4.554638400000000000e+07
1.966620906000000275e+02 1.333721472000000000e+09 4.344546000000000000e+07
1.975919350000000065e+02 1.326453504000000000e+09 4.550980400000000000e+07
1.985217793999999856e+02 1.285272960000000000e+09 4.449837600000000000e+07
1.994516238000000214e+02 1.238431616000000000e+09 4.532331200000000000e+07
2.003814681999999721e+02 1.211759744000000000e+09 4.646819200000000000e+07
2.013113126000000079e+02 1.172620416000000000e+09 4.667034800000000000e+07
2.022411569999999870e+02 1.139617152000000000e+09 4.808727600000000000e+07
2.031710014000000228e+02 1.106112512000000000e+09 4.796780400000000000e+07
2.041008458000000019e+02 1.070697920000000000e+09 4.687141200000000000e+07
2.050306901999999809e+02 1.037714752000000000e+09 4.597626000000000000e+07
2.059605346000000168e+02 9.935507200000000000e+08 4.482118400000000000e+07
2.068903789999999674e+02 9.651128960000000000e+08 4.344366800000000000e+07
2.078202234000000033e+02 9.258119040000000000e+08 4.234080800000000000e+07
2.087500677999999823e+02 8.903414400000000000e+08 4.282430400000000000e+07
2.096799122000000182e+02 8.595214720000000000e+08 4.154321200000000000e+07
2.106097565999999972e+02 8.114144000000000000e+08 4.365042000000000000e+07
2.115396010000000331e+02 7.897855360000000000e+08 4.296936000000000000e+07
2.124694454000000121e+02 7.655676800000000000e+08 4.258772800000000000e+07
2.133992897999999627e+02 7.266248320000000000e+08 4.352681200000000000e+07
2.143291341999999986e+02 7.141852160000000000e+08 4.286136400000000000e+07
2.152589785999999776e+02 6.788087680000000000e+08 4.278489600000000000e+07
2.161888230000000135e+02 6.524103680000000000e+08 4.362906400000000000e+07
2.171186673999999925e+02 6.205949440000000000e+08 4.326412400000000000e+07
2.180485118000000284e+02 5.927013120000000000e+08 4.221392400000000000e+07
2.189783562000000074e+02 5.520577920000000000e+08 4.371844400000000000e+07
2.199082005999999581e+02 5.322614080000000000e+08 4.266793200000000000e+07
2.208380449999999939e+02 4.886782400000000000e+08 4.238518800000000000e+07
2.217678893999999730e+02 4.616496640000000000e+08 4.237410000000000000e+07
2.226977338000000088e+02 4.428996800000000000e+08 4.280224800000000000e+07
2.236275781999999879e+02 4.148180480000000000e+08 4.385434400000000000e+07
2.245574226000000237e+02 3.870207360000000000e+08 4.418052800000000000e+07
2.254872670000000028e+02 3.900280320000000000e+08 4.378300800000000000e+07
2.264171114000000387e+02 3.674859200000000000e+08 4.549693600000000000e+07
2.273469558000000177e+02 3.625930560000000000e+08 4.551513200000000000e+07
2.282768001999999683e+02 3.620565120000000000e+08 4.393673200000000000e+07
2.292066446000000042e+02 3.444775680000000000e+08 4.432925200000000000e+07
2.301364889999999832e+02 3.481359680000000000e+08 4.461519200000000000e+07
2.310663334000000191e+02 3.495243840000000000e+08 4.397526000000000000e+07
2.319961777999999981e+02 3.327334720000000000e+08 4.381304000000000000e+07
2.329260222000000340e+02 3.315494080000000000e+08 4.334236000000000000e+07
2.338558666000000130e+02 3.168810560000000000e+08 4.258733600000000000e+07
2.347857109999999636e+02 2.919440640000000000e+08 4.219929200000000000e+07
2.357155553999999995e+02 2.929224000000000000e+08 4.062840000000000000e+07
2.366453997999999785e+02 2.706904320000000000e+08 4.036644400000000000e+07
2.375752442000000144e+02 2.514085120000000000e+08 3.929878800000000000e+07
2.385050885999999934e+02 2.526485440000000000e+08 3.774035600000000000e+07
2.394349330000000293e+02 2.288369600000000000e+08 3.815766000000000000e+07
2.403647774000000084e+02 2.285164160000000000e+08 3.799526800000000000e+07
2.412946218000000442e+02 2.271571520000000000e+08 3.869700000000000000e+07
2.422244661999999948e+02 2.221021440000000000e+08 3.959618000000000000e+07
2.431543105999999739e+02 2.040242240000000000e+08 4.065312000000000000e+07
2.440841550000000097e+02 2.071526240000000000e+08 4.141645600000000000e+07
2.450139993999999888e+02 2.043872800000000000e+08 4.121542400000000000e+07
2.459438438000000247e+02 1.749686240000000000e+08 4.116877600000000000e+07
